[Measurement conditions]		
Sample identification	Red	
Comment - 1	"Configuration=Anton Paar XRK-900, Owner=User-1, Creation date=2/4/2004 2:42:16 PM"	
Comment - 2	Goniometer=PW3050/60 (Theta/Theta); Minimum step size 2Theta:0.001; Minimum step size Omega:0.001	
Comment - 3	Sample stage=Anton Paar XRK-900	
Comment - 4	Diffractometer system=XPERT-PRO	
Comment - 5	"Measurement program=Cristina_CO2, Owner=User-1, Creation date=9/11/2015 4:13:06 PM"	
Anode material	Cu	
K-Alpha1 wavelength	1.540598	
K-Alpha2 wavelength	1.544426	
Ratio K-Alpha2/K-Alpha1	0.5	
Divergence slit	Fixed	0.76mm
Monochromator used	NO	
Generator voltage	40	
Tube current	40	
File date and time	16/09/2015 04:57	
Unit cell		
h k l	 0 0 0	
Temperature [K]	493	
Scan axis	Gonio	
Scan range	15	90.00017517
Scan step size	0.0167113	
No. of points	4488	
Scan type	CONTINUOUS	
Time per step	99.695	
[Scan points]		
Angle	Intensity	
15.00835563	566	
15.0250669	592	
15.04177817	607	
15.05848944	597	
15.07520071	598	
15.09191198	607	
15.10862324	593	
15.12533451	607	
15.14204578	601	
15.15875705	650	
15.17546832	600	
15.19217959	602	
15.20889086	636	
15.22560213	579	
15.2423134	627	
15.25902467	591	
15.27573593	560	
15.2924472	652	
15.30915847	557	
15.32586974	623	
15.34258101	561	
15.35929228	610	
15.37600355	601	
15.39271482	602	
15.40942609	629	
15.42613735	617	
15.44284862	558	
15.45955989	574	
15.47627116	600	
15.49298243	601	
15.5096937	574	
15.52640497	625	
15.54311624	577	
15.55982751	571	
15.57653878	566	
15.59325004	615	
15.60996131	603	
15.62667258	634	
15.64338385	632	
15.66009512	584	
15.67680639	550	
15.69351766	626	
15.71022893	584	
15.7269402	587	
15.74365147	602	
15.76036273	653	
15.777074	618	
15.79378527	580	
15.81049654	599	
15.82720781	557	
15.84391908	588	
15.86063035	594	
15.87734162	598	
15.89405289	598	
15.91076416	586	
15.92747542	579	
15.94418669	593	
15.96089796	591	
15.97760923	599	
15.9943205	594	
16.01103177	604	
16.02774304	588	
16.04445431	586	
16.06116558	616	
16.07787685	607	
16.09458811	595	
16.11129938	536	
16.12801065	641	
16.14472192	611	
16.16143319	607	
16.17814446	566	
16.19485573	569	
16.211567	550	
16.22827827	561	
16.24498953	582	
16.2617008	573	
16.27841207	553	
16.29512334	588	
16.31183461	629	
16.32854588	579	
16.34525715	543	
16.36196842	597	
16.37867969	570	
16.39539096	610	
16.41210222	558	
16.42881349	544	
16.44552476	574	
16.46223603	589	
16.4789473	583	
16.49565857	587	
16.51236984	575	
16.52908111	569	
16.54579238	544	
16.56250365	582	
16.57921491	599	
16.59592618	574	
16.61263745	571	
16.62934872	615	
16.64605999	578	
16.66277126	516	
16.67948253	557	
16.6961938	591	
16.71290507	599	
16.72961634	592	
16.7463276	571	
16.76303887	588	
16.77975014	553	
16.79646141	554	
16.81317268	563	
16.82988395	567	
16.84659522	590	
16.86330649	556	
16.88001776	562	
16.89672903	561	
16.91344029	531	
16.93015156	543	
16.94686283	621	
16.9635741	556	
16.98028537	547	
16.99699664	533	
17.01370791	536	
17.03041918	558	
17.04713045	589	
17.06384171	583	
17.08055298	571	
17.09726425	639	
17.11397552	536	
17.13068679	545	
17.14739806	573	
17.16410933	569	
17.1808206	524	
17.19753187	587	
17.21424314	566	
17.2309544	603	
17.24766567	557	
17.26437694	563	
17.28108821	593	
17.29779948	571	
17.31451075	535	
17.33122202	570	
17.34793329	511	
17.36464456	590	
17.38135583	567	
17.39806709	546	
17.41477836	532	
17.43148963	578	
17.4482009	569	
17.46491217	554	
17.48162344	557	
17.49833471	567	
17.51504598	559	
17.53175725	567	
17.54846852	544	
17.56517978	588	
17.58189105	569	
17.59860232	541	
17.61531359	540	
17.63202486	577	
17.64873613	551	
17.6654474	595	
17.68215867	586	
17.69886994	584	
17.71558121	568	
17.73229247	569	
17.74900374	560	
17.76571501	540	
17.78242628	571	
17.79913755	578	
17.81584882	552	
17.83256009	559	
17.84927136	508	
17.86598263	560	
17.88269389	539	
17.89940516	541	
17.91611643	523	
17.9328277	526	
17.94953897	509	
17.96625024	540	
17.98296151	587	
17.99967278	529	
18.01638405	548	
18.03309532	530	
18.04980658	509	
18.06651785	579	
18.08322912	541	
18.09994039	530	
18.11665166	563	
18.13336293	560	
18.1500742	541	
18.16678547	544	
18.18349674	536	
18.20020801	584	
18.21691927	557	
18.23363054	578	
18.25034181	572	
18.26705308	548	
18.28376435	554	
18.30047562	584	
18.31718689	528	
18.33389816	578	
18.35060943	560	
18.3673207	496	
18.38403196	556	
18.40074323	539	
18.4174545	560	
18.43416577	539	
18.45087704	550	
18.46758831	513	
18.48429958	540	
18.50101085	547	
18.51772212	533	
18.53443339	577	
18.55114465	557	
18.56785592	507	
18.58456719	552	
18.60127846	542	
18.61798973	555	
18.634701	513	
18.65141227	526	
18.66812354	533	
18.68483481	562	
18.70154607	547	
18.71825734	520	
18.73496861	564	
18.75167988	580	
18.76839115	524	
18.78510242	587	
18.80181369	561	
18.81852496	567	
18.83523623	570	
18.8519475	508	
18.86865876	553	
18.88537003	544	
18.9020813	542	
18.91879257	550	
18.93550384	535	
18.95221511	569	
18.96892638	553	
18.98563765	570	
19.00234892	553	
19.01906019	609	
19.03577145	521	
19.05248272	539	
19.06919399	531	
19.08590526	539	
19.10261653	554	
19.1193278	571	
19.13603907	553	
19.15275034	552	
19.16946161	536	
19.18617288	535	
19.20288414	525	
19.21959541	504	
19.23630668	567	
19.25301795	554	
19.26972922	611	
19.28644049	538	
19.30315176	538	
19.31986303	553	
19.3365743	611	
19.35328557	589	
19.36999683	550	
19.3867081	496	
19.40341937	580	
19.42013064	575	
19.43684191	585	
19.45355318	580	
19.47026445	559	
19.48697572	554	
19.50368699	531	
19.52039825	540	
19.53710952	542	
19.55382079	504	
19.57053206	561	
19.58724333	569	
19.6039546	559	
19.62066587	579	
19.63737714	590	
19.65408841	561	
19.67079968	564	
19.68751094	546	
19.70422221	548	
19.72093348	552	
19.73764475	551	
19.75435602	536	
19.77106729	560	
19.78777856	509	
19.80448983	590	
19.8212011	548	
19.83791237	584	
19.85462363	505	
19.8713349	508	
19.88804617	595	
19.90475744	485	
19.92146871	564	
19.93817998	573	
19.95489125	553	
19.97160252	559	
19.98831379	546	
20.00502506	497	
20.02173632	519	
20.03844759	583	
20.05515886	551	
20.07187013	516	
20.0885814	573	
20.10529267	537	
20.12200394	529	
20.13871521	503	
20.15542648	535	
20.17213775	535	
20.18884901	519	
20.20556028	557	
20.22227155	547	
20.23898282	530	
20.25569409	556	
20.27240536	555	
20.28911663	523	
20.3058279	591	
20.32253917	570	
20.33925043	574	
20.3559617	550	
20.37267297	570	
20.38938424	586	
20.40609551	554	
20.42280678	516	
20.43951805	547	
20.45622932	497	
20.47294059	520	
20.48965186	539	
20.50636312	552	
20.52307439	533	
20.53978566	558	
20.55649693	507	
20.5732082	524	
20.58991947	508	
20.60663074	574	
20.62334201	548	
20.64005328	516	
20.65676455	566	
20.67347581	524	
20.69018708	519	
20.70689835	586	
20.72360962	548	
20.74032089	505	
20.75703216	553	
20.77374343	504	
20.7904547	514	
20.80716597	506	
20.82387724	567	
20.8405885	543	
20.85729977	506	
20.87401104	579	
20.89072231	512	
20.90743358	509	
20.92414485	544	
20.94085612	564	
20.95756739	535	
20.97427866	545	
20.99098993	539	
21.00770119	517	
21.02441246	511	
21.04112373	525	
21.057835	517	
21.07454627	526	
21.09125754	513	
21.10796881	557	
21.12468008	517	
21.14139135	527	
21.15810261	523	
21.17481388	520	
21.19152515	499	
21.20823642	492	
21.22494769	507	
21.24165896	540	
21.25837023	546	
21.2750815	533	
21.29179277	541	
21.30850404	528	
21.3252153	528	
21.34192657	536	
21.35863784	542	
21.37534911	511	
21.39206038	506	
21.40877165	519	
21.42548292	526	
21.44219419	503	
21.45890546	528	
21.47561673	510	
21.49232799	542	
21.50903926	510	
21.52575053	546	
21.5424618	492	
21.55917307	531	
21.57588434	522	
21.59259561	521	
21.60930688	505	
21.62601815	531	
21.64272942	531	
21.65944068	496	
21.67615195	553	
21.69286322	479	
21.70957449	508	
21.72628576	490	
21.74299703	493	
21.7597083	505	
21.77641957	533	
21.79313084	517	
21.80984211	489	
21.82655337	507	
21.84326464	474	
21.85997591	506	
21.87668718	530	
21.89339845	507	
21.91010972	519	
21.92682099	479	
21.94353226	498	
21.96024353	529	
21.97695479	489	
21.99366606	476	
22.01037733	521	
22.0270886	521	
22.04379987	500	
22.06051114	464	
22.07722241	477	
22.09393368	491	
22.11064495	491	
22.12735622	489	
22.14406748	517	
22.16077875	472	
22.17749002	507	
22.19420129	508	
22.21091256	519	
22.22762383	537	
22.2443351	461	
22.26104637	527	
22.27775764	477	
22.29446891	487	
22.31118017	468	
22.32789144	499	
22.34460271	507	
22.36131398	499	
22.37802525	504	
22.39473652	489	
22.41144779	521	
22.42815906	495	
22.44487033	501	
22.4615816	497	
22.47829286	481	
22.49500413	508	
22.5117154	537	
22.52842667	538	
22.54513794	530	
22.56184921	489	
22.57856048	531	
22.59527175	514	
22.61198302	542	
22.62869429	491	
22.64540555	485	
22.66211682	510	
22.67882809	542	
22.69553936	483	
22.71225063	501	
22.7289619	530	
22.74567317	468	
22.76238444	459	
22.77909571	493	
22.79580697	476	
22.81251824	523	
22.82922951	484	
22.84594078	527	
22.86265205	475	
22.87936332	485	
22.89607459	522	
22.91278586	510	
22.92949713	491	
22.9462084	514	
22.96291966	488	
22.97963093	477	
22.9963422	537	
23.01305347	541	
23.02976474	490	
23.04647601	494	
23.06318728	499	
23.07989855	497	
23.09660982	510	
23.11332109	462	
23.13003235	520	
23.14674362	511	
23.16345489	557	
23.18016616	461	
23.19687743	510	
23.2135887	478	
23.23029997	517	
23.24701124	510	
23.26372251	521	
23.28043378	514	
23.29714504	524	
23.31385631	506	
23.33056758	494	
23.34727885	524	
23.36399012	528	
23.38070139	475	
23.39741266	523	
23.41412393	478	
23.4308352	481	
23.44754647	477	
23.46425773	499	
23.480969	484	
23.49768027	475	
23.51439154	503	
23.53110281	554	
23.54781408	429	
23.56452535	488	
23.58123662	513	
23.59794789	470	
23.61465915	466	
23.63137042	503	
23.64808169	493	
23.66479296	466	
23.68150423	499	
23.6982155	519	
23.71492677	527	
23.73163804	522	
23.74834931	485	
23.76506058	481	
23.78177184	459	
23.79848311	491	
23.81519438	505	
23.83190565	509	
23.84861692	479	
23.86532819	488	
23.88203946	524	
23.89875073	493	
23.915462	514	
23.93217327	520	
23.94888453	515	
23.9655958	489	
23.98230707	479	
23.99901834	489	
24.01572961	519	
24.03244088	492	
24.04915215	479	
24.06586342	487	
24.08257469	475	
24.09928596	532	
24.11599722	520	
24.13270849	505	
24.14941976	482	
24.16613103	482	
24.1828423	489	
24.19955357	511	
24.21626484	508	
24.23297611	493	
24.24968738	484	
24.26639865	497	
24.28310991	498	
24.29982118	527	
24.31653245	459	
24.33324372	493	
24.34995499	462	
24.36666626	485	
24.38337753	464	
24.4000888	495	
24.41680007	510	
24.43351133	529	
24.4502226	472	
24.46693387	450	
24.48364514	504	
24.50035641	500	
24.51706768	526	
24.53377895	510	
24.55049022	464	
24.56720149	474	
24.58391276	498	
24.60062402	478	
24.61733529	477	
24.63404656	468	
24.65075783	480	
24.6674691	514	
24.68418037	466	
24.70089164	488	
24.71760291	503	
24.73431418	506	
24.75102545	533	
24.76773671	482	
24.78444798	485	
24.80115925	482	
24.81787052	468	
24.83458179	490	
24.85129306	481	
24.86800433	495	
24.8847156	508	
24.90142687	468	
24.91813814	482	
24.9348494	520	
24.95156067	529	
24.96827194	490	
24.98498321	466	
25.00169448	510	
25.01840575	521	
25.03511702	478	
25.05182829	483	
25.06853956	473	
25.08525083	493	
25.10196209	537	
25.11867336	510	
25.13538463	520	
25.1520959	515	
25.16880717	485	
25.18551844	542	
25.20222971	473	
25.21894098	491	
25.23565225	527	
25.25236351	529	
25.26907478	480	
25.28578605	477	
25.30249732	500	
25.31920859	510	
25.33591986	520	
25.35263113	528	
25.3693424	503	
25.38605367	492	
25.40276494	507	
25.4194762	504	
25.43618747	522	
25.45289874	459	
25.46961001	513	
25.48632128	501	
25.50303255	450	
25.51974382	506	
25.53645509	519	
25.55316636	473	
25.56987763	541	
25.58658889	509	
25.60330016	484	
25.62001143	482	
25.6367227	507	
25.65343397	530	
25.67014524	501	
25.68685651	510	
25.70356778	524	
25.72027905	468	
25.73699032	519	
25.75370158	446	
25.77041285	508	
25.78712412	512	
25.80383539	478	
25.82054666	489	
25.83725793	499	
25.8539692	550	
25.87068047	503	
25.88739174	516	
25.904103	539	
25.92081427	493	
25.93752554	511	
25.95423681	521	
25.97094808	499	
25.98765935	470	
26.00437062	499	
26.02108189	496	
26.03779316	491	
26.05450443	456	
26.07121569	521	
26.08792696	505	
26.10463823	491	
26.1213495	472	
26.13806077	483	
26.15477204	507	
26.17148331	498	
26.18819458	537	
26.20490585	535	
26.22161712	531	
26.23832838	500	
26.25503965	487	
26.27175092	474	
26.28846219	532	
26.30517346	480	
26.32188473	462	
26.338596	480	
26.35530727	516	
26.37201854	468	
26.38872981	497	
26.40544107	473	
26.42215234	513	
26.43886361	480	
26.45557488	516	
26.47228615	489	
26.48899742	487	
26.50570869	498	
26.52241996	533	
26.53913123	511	
26.5558425	515	
26.57255376	512	
26.58926503	527	
26.6059763	484	
26.62268757	499	
26.63939884	498	
26.65611011	547	
26.67282138	530	
26.68953265	496	
26.70624392	527	
26.72295518	522	
26.73966645	516	
26.75637772	525	
26.77308899	482	
26.78980026	482	
26.80651153	523	
26.8232228	519	
26.83993407	483	
26.85664534	483	
26.87335661	539	
26.89006787	474	
26.90677914	548	
26.92349041	530	
26.94020168	497	
26.95691295	501	
26.97362422	512	
26.99033549	506	
27.00704676	516	
27.02375803	520	
27.0404693	508	
27.05718056	550	
27.07389183	520	
27.0906031	519	
27.10731437	540	
27.12402564	509	
27.14073691	515	
27.15744818	479	
27.17415945	520	
27.19087072	530	
27.20758199	512	
27.22429325	494	
27.24100452	472	
27.25771579	512	
27.27442706	540	
27.29113833	529	
27.3078496	537	
27.32456087	514	
27.34127214	544	
27.35798341	513	
27.37469468	532	
27.39140594	512	
27.40811721	602	
27.42482848	527	
27.44153975	529	
27.45825102	555	
27.47496229	535	
27.49167356	543	
27.50838483	533	
27.5250961	491	
27.54180736	523	
27.55851863	479	
27.5752299	566	
27.59194117	538	
27.60865244	584	
27.62536371	487	
27.64207498	523	
27.65878625	506	
27.67549752	537	
27.69220879	481	
27.70892005	560	
27.72563132	500	
27.74234259	496	
27.75905386	494	
27.77576513	559	
27.7924764	582	
27.80918767	553	
27.82589894	525	
27.84261021	533	
27.85932148	511	
27.87603274	523	
27.89274401	520	
27.90945528	563	
27.92616655	523	
27.94287782	573	
27.95958909	550	
27.97630036	530	
27.99301163	508	
28.0097229	527	
28.02643417	556	
28.04314543	526	
28.0598567	530	
28.07656797	586	
28.09327924	551	
28.10999051	566	
28.12670178	543	
28.14341305	544	
28.16012432	523	
28.17683559	553	
28.19354686	528	
28.21025812	578	
28.22696939	543	
28.24368066	575	
28.26039193	571	
28.2771032	580	
28.29381447	583	
28.31052574	569	
28.32723701	525	
28.34394828	566	
28.36065954	525	
28.37737081	542	
28.39408208	609	
28.41079335	563	
28.42750462	537	
28.44421589	570	
28.46092716	588	
28.47763843	524	
28.4943497	574	
28.51106097	577	
28.52777223	580	
28.5444835	546	
28.56119477	595	
28.57790604	585	
28.59461731	523	
28.61132858	515	
28.62803985	564	
28.64475112	589	
28.66146239	573	
28.67817366	555	
28.69488492	588	
28.71159619	574	
28.72830746	576	
28.74501873	550	
28.76173	571	
28.77844127	629	
28.79515254	551	
28.81186381	577	
28.82857508	573	
28.84528635	576	
28.86199761	551	
28.87870888	557	
28.89542015	586	
28.91213142	567	
28.92884269	563	
28.94555396	601	
28.96226523	619	
28.9789765	603	
28.99568777	626	
29.01239904	568	
29.0291103	595	
29.04582157	561	
29.06253284	594	
29.07924411	570	
29.09595538	600	
29.11266665	608	
29.12937792	520	
29.14608919	615	
29.16280046	563	
29.17951172	606	
29.19622299	556	
29.21293426	570	
29.22964553	615	
29.2463568	592	
29.26306807	649	
29.27977934	600	
29.29649061	600	
29.31320188	554	
29.32991315	587	
29.34662441	551	
29.36333568	569	
29.38004695	592	
29.39675822	560	
29.41346949	574	
29.43018076	578	
29.44689203	626	
29.4636033	636	
29.48031457	637	
29.49702584	592	
29.5137371	674	
29.53044837	615	
29.54715964	590	
29.56387091	620	
29.58058218	588	
29.59729345	562	
29.61400472	585	
29.63071599	586	
29.64742726	566	
29.66413853	616	
29.68084979	600	
29.69756106	616	
29.71427233	605	
29.7309836	629	
29.74769487	588	
29.76440614	631	
29.78111741	610	
29.79782868	645	
29.81453995	580	
29.83125122	607	
29.84796248	623	
29.86467375	639	
29.88138502	619	
29.89809629	590	
29.91480756	604	
29.93151883	595	
29.9482301	609	
29.96494137	640	
29.98165264	617	
29.9983639	673	
30.01507517	598	
30.03178644	580	
30.04849771	576	
30.06520898	602	
30.08192025	600	
30.09863152	606	
30.11534279	673	
30.13205406	614	
30.14876533	630	
30.16547659	591	
30.18218786	557	
30.19889913	620	
30.2156104	568	
30.23232167	637	
30.24903294	670	
30.26574421	651	
30.28245548	605	
30.29916675	617	
30.31587802	621	
30.33258928	577	
30.34930055	665	
30.36601182	627	
30.38272309	655	
30.39943436	662	
30.41614563	670	
30.4328569	674	
30.44956817	643	
30.46627944	655	
30.48299071	625	
30.49970197	617	
30.51641324	630	
30.53312451	656	
30.54983578	705	
30.56654705	636	
30.58325832	646	
30.59996959	647	
30.61668086	616	
30.63339213	601	
30.6501034	646	
30.66681466	646	
30.68352593	635	
30.7002372	623	
30.71694847	635	
30.73365974	634	
30.75037101	648	
30.76708228	606	
30.78379355	629	
30.80050482	654	
30.81721608	723	
30.83392735	674	
30.85063862	664	
30.86734989	627	
30.88406116	676	
30.90077243	639	
30.9174837	663	
30.93419497	660	
30.95090624	643	
30.96761751	671	
30.98432877	615	
31.00104004	668	
31.01775131	670	
31.03446258	681	
31.05117385	645	
31.06788512	704	
31.08459639	627	
31.10130766	643	
31.11801893	634	
31.1347302	720	
31.15144146	705	
31.16815273	654	
31.184864	690	
31.20157527	672	
31.21828654	627	
31.23499781	660	
31.25170908	613	
31.26842035	661	
31.28513162	689	
31.30184289	687	
31.31855415	658	
31.33526542	701	
31.35197669	679	
31.36868796	672	
31.38539923	676	
31.4021105	681	
31.41882177	652	
31.43553304	663	
31.45224431	692	
31.46895558	670	
31.48566684	702	
31.50237811	726	
31.51908938	661	
31.53580065	712	
31.55251192	686	
31.56922319	731	
31.58593446	696	
31.60264573	692	
31.619357	661	
31.63606826	686	
31.65277953	735	
31.6694908	667	
31.68620207	717	
31.70291334	703	
31.71962461	700	
31.73633588	677	
31.75304715	692	
31.76975842	740	
31.78646969	654	
31.80318095	702	
31.81989222	730	
31.83660349	672	
31.85331476	749	
31.87002603	767	
31.8867373	680	
31.90344857	698	
31.92015984	752	
31.93687111	650	
31.95358238	682	
31.97029364	735	
31.98700491	713	
32.00371618	696	
32.02042745	711	
32.03713872	696	
32.05384999	756	
32.07056126	707	
32.08727253	673	
32.1039838	720	
32.12069507	673	
32.13740633	708	
32.1541176	757	
32.17082887	734	
32.18754014	755	
32.20425141	678	
32.22096268	723	
32.23767395	703	
32.25438522	698	
32.27109649	698	
32.28780776	775	
32.30451902	723	
32.32123029	756	
32.33794156	705	
32.35465283	756	
32.3713641	761	
32.38807537	771	
32.40478664	724	
32.42149791	792	
32.43820918	764	
32.45492044	704	
32.47163171	699	
32.48834298	742	
32.50505425	783	
32.52176552	772	
32.53847679	716	
32.55518806	767	
32.57189933	745	
32.5886106	758	
32.60532187	678	
32.62203313	743	
32.6387444	751	
32.65545567	718	
32.67216694	733	
32.68887821	708	
32.70558948	802	
32.72230075	684	
32.73901202	737	
32.75572329	729	
32.77243456	683	
32.78914582	803	
32.80585709	732	
32.82256836	734	
32.83927963	702	
32.8559909	799	
32.87270217	710	
32.88941344	718	
32.90612471	773	
32.92283598	748	
32.93954725	767	
32.95625851	731	
32.97296978	751	
32.98968105	749	
33.00639232	735	
33.02310359	763	
33.03981486	735	
33.05652613	749	
33.0732374	755	
33.08994867	762	
33.10665994	728	
33.1233712	682	
33.14008247	694	
33.15679374	767	
33.17350501	781	
33.19021628	724	
33.20692755	732	
33.22363882	757	
33.24035009	803	
33.25706136	744	
33.27377262	732	
33.29048389	705	
33.30719516	671	
33.32390643	704	
33.3406177	768	
33.35732897	765	
33.37404024	723	
33.39075151	717	
33.40746278	737	
33.42417405	726	
33.44088531	703	
33.45759658	704	
33.47430785	705	
33.49101912	714	
33.50773039	755	
33.52444166	718	
33.54115293	680	
33.5578642	760	
33.57457547	724	
33.59128674	698	
33.607998	725	
33.62470927	698	
33.64142054	714	
33.65813181	726	
33.67484308	721	
33.69155435	672	
33.70826562	720	
33.72497689	735	
33.74168816	719	
33.75839943	724	
33.77511069	755	
33.79182196	718	
33.80853323	713	
33.8252445	774	
33.84195577	685	
33.85866704	701	
33.87537831	695	
33.89208958	718	
33.90880085	662	
33.92551212	752	
33.94222338	784	
33.95893465	720	
33.97564592	746	
33.99235719	740	
34.00906846	788	
34.02577973	712	
34.042491	732	
34.05920227	725	
34.07591354	718	
34.0926248	732	
34.10933607	775	
34.12604734	757	
34.14275861	719	
34.15946988	737	
34.17618115	771	
34.19289242	760	
34.20960369	734	
34.22631496	693	
34.24302623	712	
34.25973749	725	
34.27644876	719	
34.29316003	755	
34.3098713	755	
34.32658257	741	
34.34329384	735	
34.36000511	745	
34.37671638	741	
34.39342765	771	
34.41013892	741	
34.42685018	701	
34.44356145	667	
34.46027272	744	
34.47698399	733	
34.49369526	741	
34.51040653	725	
34.5271178	720	
34.54382907	735	
34.56054034	730	
34.57725161	717	
34.59396287	716	
34.61067414	776	
34.62738541	745	
34.64409668	735	
34.66080795	682	
34.67751922	763	
34.69423049	696	
34.71094176	728	
34.72765303	732	
34.7443643	767	
34.76107556	720	
34.77778683	798	
34.7944981	737	
34.81120937	781	
34.82792064	726	
34.84463191	745	
34.86134318	732	
34.87805445	759	
34.89476572	770	
34.91147698	779	
34.92818825	755	
34.94489952	787	
34.96161079	763	
34.97832206	802	
34.99503333	746	
35.0117446	783	
35.02845587	760	
35.04516714	759	
35.06187841	791	
35.07858967	774	
35.09530094	807	
35.11201221	804	
35.12872348	840	
35.14543475	727	
35.16214602	821	
35.17885729	783	
35.19556856	753	
35.21227983	723	
35.2289911	806	
35.24570236	763	
35.26241363	740	
35.2791249	814	
35.29583617	758	
35.31254744	770	
35.32925871	781	
35.34596998	767	
35.36268125	794	
35.37939252	788	
35.39610379	780	
35.41281505	775	
35.42952632	779	
35.44623759	880	
35.46294886	812	
35.47966013	829	
35.4963714	764	
35.51308267	837	
35.52979394	802	
35.54650521	805	
35.56321648	834	
35.57992774	828	
35.59663901	799	
35.61335028	809	
35.63006155	781	
35.64677282	780	
35.66348409	836	
35.68019536	815	
35.69690663	843	
35.7136179	840	
35.73032916	824	
35.74704043	838	
35.7637517	836	
35.78046297	812	
35.79717424	794	
35.81388551	829	
35.83059678	825	
35.84730805	853	
35.86401932	807	
35.88073059	858	
35.89744185	918	
35.91415312	843	
35.93086439	830	
35.94757566	864	
35.96428693	833	
35.9809982	891	
35.99770947	849	
36.01442074	888	
36.03113201	877	
36.04784328	855	
36.06455454	859	
36.08126581	894	
36.09797708	873	
36.11468835	854	
36.13139962	873	
36.14811089	900	
36.16482216	927	
36.18153343	931	
36.1982447	893	
36.21495597	934	
36.23166723	924	
36.2483785	883	
36.26508977	885	
36.28180104	872	
36.29851231	951	
36.31522358	858	
36.33193485	905	
36.34864612	887	
36.36535739	903	
36.38206865	1018	
36.39877992	983	
36.41549119	920	
36.43220246	909	
36.44891373	940	
36.465625	918	
36.48233627	960	
36.49904754	954	
36.51575881	936	
36.53247008	949	
36.54918134	930	
36.56589261	963	
36.58260388	982	
36.59931515	1008	
36.61602642	1020	
36.63273769	994	
36.64944896	983	
36.66616023	899	
36.6828715	924	
36.69958277	982	
36.71629403	937	
36.7330053	929	
36.74971657	980	
36.76642784	982	
36.78313911	1003	
36.79985038	932	
36.81656165	1007	
36.83327292	974	
36.84998419	979	
36.86669546	990	
36.88340672	945	
36.90011799	990	
36.91682926	1001	
36.93354053	1042	
36.9502518	1047	
36.96696307	1014	
36.98367434	966	
37.00038561	969	
37.01709688	996	
37.03380815	1024	
37.05051941	1023	
37.06723068	1019	
37.08394195	999	
37.10065322	1007	
37.11736449	1041	
37.13407576	998	
37.15078703	1063	
37.1674983	1014	
37.18420957	982	
37.20092083	1008	
37.2176321	1047	
37.23434337	1009	
37.25105464	1015	
37.26776591	924	
37.28447718	1026	
37.30118845	988	
37.31789972	1006	
37.33461099	1025	
37.35132226	1027	
37.36803352	1041	
37.38474479	975	
37.40145606	977	
37.41816733	1013	
37.4348786	979	
37.45158987	1028	
37.46830114	1031	
37.48501241	1075	
37.50172368	1013	
37.51843495	1014	
37.53514621	1035	
37.55185748	1001	
37.56856875	1007	
37.58528002	988	
37.60199129	948	
37.61870256	1008	
37.63541383	1010	
37.6521251	1030	
37.66883637	1016	
37.68554764	966	
37.7022589	1028	
37.71897017	984	
37.73568144	994	
37.75239271	982	
37.76910398	1069	
37.78581525	971	
37.80252652	957	
37.81923779	1031	
37.83594906	1049	
37.85266033	957	
37.86937159	976	
37.88608286	1033	
37.90279413	1018	
37.9195054	903	
37.93621667	934	
37.95292794	930	
37.96963921	941	
37.98635048	957	
38.00306175	983	
38.01977301	943	
38.03648428	982	
38.05319555	941	
38.06990682	949	
38.08661809	917	
38.10332936	845	
38.12004063	994	
38.1367519	918	
38.15346317	987	
38.17017444	1001	
38.1868857	959	
38.20359697	960	
38.22030824	925	
38.23701951	965	
38.25373078	956	
38.27044205	963	
38.28715332	847	
38.30386459	947	
38.32057586	945	
38.33728713	921	
38.35399839	943	
38.37070966	1002	
38.38742093	909	
38.4041322	931	
38.42084347	947	
38.43755474	984	
38.45426601	903	
38.47097728	898	
38.48768855	916	
38.50439982	903	
38.52111108	923	
38.53782235	875	
38.55453362	903	
38.57124489	880	
38.58795616	877	
38.60466743	899	
38.6213787	887	
38.63808997	847	
38.65480124	874	
38.67151251	888	
38.68822377	871	
38.70493504	897	
38.72164631	896	
38.73835758	861	
38.75506885	871	
38.77178012	872	
38.78849139	843	
38.80520266	961	
38.82191393	876	
38.83862519	866	
38.85533646	805	
38.87204773	884	
38.888759	882	
38.90547027	913	
38.92218154	836	
38.93889281	871	
38.95560408	852	
38.97231535	945	
38.98902662	827	
39.00573788	872	
39.02244915	912	
39.03916042	881	
39.05587169	897	
39.07258296	872	
39.08929423	936	
39.1060055	902	
39.12271677	910	
39.13942804	919	
39.15613931	918	
39.17285057	908	
39.18956184	915	
39.20627311	936	
39.22298438	925	
39.23969565	927	
39.25640692	893	
39.27311819	960	
39.28982946	918	
39.30654073	886	
39.323252	955	
39.33996326	966	
39.35667453	955	
39.3733858	944	
39.39009707	924	
39.40680834	1008	
39.42351961	972	
39.44023088	955	
39.45694215	972	
39.47365342	993	
39.49036469	916	
39.50707595	935	
39.52378722	979	
39.54049849	1049	
39.55720976	978	
39.57392103	1029	
39.5906323	998	
39.60734357	1028	
39.62405484	996	
39.64076611	1012	
39.65747737	1010	
39.67418864	983	
39.69089991	1015	
39.70761118	990	
39.72432245	976	
39.74103372	993	
39.75774499	1010	
39.77445626	986	
39.79116753	1008	
39.8078788	964	
39.82459006	978	
39.84130133	1001	
39.8580126	946	
39.87472387	1027	
39.89143514	980	
39.90814641	1010	
39.92485768	1024	
39.94156895	935	
39.95828022	993	
39.97499149	990	
39.99170275	966	
40.00841402	962	
40.02512529	966	
40.04183656	1013	
40.05854783	937	
40.0752591	969	
40.09197037	987	
40.10868164	915	
40.12539291	937	
40.14210418	951	
40.15881544	927	
40.17552671	882	
40.19223798	928	
40.20894925	940	
40.22566052	821	
40.24237179	929	
40.25908306	897	
40.27579433	925	
40.2925056	929	
40.30921687	910	
40.32592813	847	
40.3426394	805	
40.35935067	802	
40.37606194	871	
40.39277321	829	
40.40948448	815	
40.42619575	856	
40.44290702	878	
40.45961829	795	
40.47632955	788	
40.49304082	829	
40.50975209	790	
40.52646336	803	
40.54317463	790	
40.5598859	802	
40.57659717	760	
40.59330844	729	
40.61001971	814	
40.62673098	797	
40.64344224	812	
40.66015351	732	
40.67686478	775	
40.69357605	725	
40.71028732	755	
40.72699859	712	
40.74370986	678	
40.76042113	731	
40.7771324	734	
40.79384367	661	
40.81055493	708	
40.8272662	681	
40.84397747	657	
40.86068874	670	
40.87740001	661	
40.89411128	646	
40.91082255	694	
40.92753382	671	
40.94424509	606	
40.96095636	661	
40.97766762	643	
40.99437889	643	
41.01109016	631	
41.02780143	679	
41.0445127	624	
41.06122397	649	
41.07793524	670	
41.09464651	632	
41.11135778	636	
41.12806905	629	
41.14478031	606	
41.16149158	622	
41.17820285	599	
41.19491412	620	
41.21162539	614	
41.22833666	616	
41.24504793	606	
41.2617592	591	
41.27847047	574	
41.29518173	609	
41.311893	608	
41.32860427	597	
41.34531554	570	
41.36202681	602	
41.37873808	525	
41.39544935	574	
41.41216062	577	
41.42887189	550	
41.44558316	545	
41.46229442	626	
41.47900569	598	
41.49571696	583	
41.51242823	564	
41.5291395	527	
41.54585077	590	
41.56256204	577	
41.57927331	526	
41.59598458	533	
41.61269585	585	
41.62940711	558	
41.64611838	560	
41.66282965	521	
41.67954092	533	
41.69625219	540	
41.71296346	538	
41.72967473	547	
41.746386	603	
41.76309727	530	
41.77980854	519	
41.7965198	516	
41.81323107	540	
41.82994234	495	
41.84665361	555	
41.86336488	498	
41.88007615	526	
41.89678742	503	
41.91349869	558	
41.93020996	541	
41.94692123	536	
41.96363249	530	
41.98034376	543	
41.99705503	495	
42.0137663	550	
42.03047757	539	
42.04718884	508	
42.06390011	526	
42.08061138	517	
42.09732265	537	
42.11403391	441	
42.13074518	508	
42.14745645	515	
42.16416772	545	
42.18087899	515	
42.19759026	508	
42.21430153	497	
42.2310128	512	
42.24772407	523	
42.26443534	483	
42.2811466	495	
42.29785787	527	
42.31456914	510	
42.33128041	543	
42.34799168	505	
42.36470295	504	
42.38141422	490	
42.39812549	510	
42.41483676	526	
42.43154803	504	
42.44825929	484	
42.46497056	504	
42.48168183	553	
42.4983931	520	
42.51510437	476	
42.53181564	473	
42.54852691	489	
42.56523818	473	
42.58194945	504	
42.59866072	495	
42.61537198	479	
42.63208325	467	
42.64879452	459	
42.66550579	510	
42.68221706	521	
42.69892833	511	
42.7156396	472	
42.73235087	512	
42.74906214	497	
42.76577341	479	
42.78248467	479	
42.79919594	437	
42.81590721	433	
42.83261848	497	
42.84932975	485	
42.86604102	458	
42.88275229	498	
42.89946356	462	
42.91617483	470	
42.93288609	505	
42.94959736	488	
42.96630863	481	
42.9830199	480	
42.99973117	487	
43.01644244	483	
43.03315371	476	
43.04986498	450	
43.06657625	446	
43.08328752	483	
43.09999878	497	
43.11671005	562	
43.13342132	506	
43.15013259	513	
43.16684386	460	
43.18355513	571	
43.2002664	530	
43.21697767	506	
43.23368894	470	
43.25040021	499	
43.26711147	462	
43.28382274	506	
43.30053401	495	
43.31724528	530	
43.33395655	438	
43.35066782	511	
43.36737909	510	
43.38409036	510	
43.40080163	516	
43.4175129	539	
43.43422416	484	
43.45093543	543	
43.4676467	467	
43.48435797	514	
43.50106924	531	
43.51778051	524	
43.53449178	474	
43.55120305	521	
43.56791432	525	
43.58462559	522	
43.60133685	527	
43.61804812	577	
43.63475939	521	
43.65147066	464	
43.66818193	511	
43.6848932	511	
43.70160447	553	
43.71831574	501	
43.73502701	556	
43.75173827	635	
43.76844954	577	
43.78516081	601	
43.80187208	533	
43.81858335	524	
43.83529462	557	
43.85200589	559	
43.86871716	588	
43.88542843	552	
43.9021397	535	
43.91885096	561	
43.93556223	559	
43.9522735	584	
43.96898477	548	
43.98569604	574	
44.00240731	605	
44.01911858	577	
44.03582985	568	
44.05254112	557	
44.06925239	600	
44.08596365	598	
44.10267492	592	
44.11938619	593	
44.13609746	593	
44.15280873	635	
44.16952	591	
44.18623127	620	
44.20294254	664	
44.21965381	589	
44.23636508	580	
44.25307634	649	
44.26978761	577	
44.28649888	683	
44.30321015	615	
44.31992142	640	
44.33663269	605	
44.35334396	686	
44.37005523	637	
44.3867665	650	
44.40347777	671	
44.42018903	713	
44.4369003	700	
44.45361157	704	
44.47032284	676	
44.48703411	705	
44.50374538	672	
44.52045665	703	
44.53716792	717	
44.55387919	758	
44.57059045	719	
44.58730172	749	
44.60401299	763	
44.62072426	767	
44.63743553	756	
44.6541468	726	
44.67085807	700	
44.68756934	711	
44.70428061	753	
44.72099188	736	
44.73770314	760	
44.75441441	733	
44.77112568	821	
44.78783695	763	
44.80454822	762	
44.82125949	814	
44.83797076	802	
44.85468203	811	
44.8713933	807	
44.88810457	805	
44.90481583	809	
44.9215271	772	
44.93823837	798	
44.95494964	842	
44.97166091	859	
44.98837218	779	
45.00508345	850	
45.02179472	798	
45.03850599	880	
45.05521726	878	
45.07192852	842	
45.08863979	861	
45.10535106	910	
45.12206233	883	
45.1387736	891	
45.15548487	900	
45.17219614	852	
45.18890741	900	
45.20561868	919	
45.22232995	893	
45.23904121	924	
45.25575248	940	
45.27246375	928	
45.28917502	955	
45.30588629	998	
45.32259756	981	
45.33930883	927	
45.3560201	962	
45.37273137	953	
45.38944263	1018	
45.4061539	1012	
45.42286517	1026	
45.43957644	975	
45.45628771	988	
45.47299898	1026	
45.48971025	967	
45.50642152	939	
45.52313279	1013	
45.53984406	1048	
45.55655532	1028	
45.57326659	1103	
45.58997786	1065	
45.60668913	1084	
45.6234004	943	
45.64011167	1086	
45.65682294	1113	
45.67353421	1028	
45.69024548	1023	
45.70695675	1015	
45.72366801	1095	
45.74037928	1121	
45.75709055	1104	
45.77380182	1030	
45.79051309	1058	
45.80722436	1101	
45.82393563	1102	
45.8406469	1136	
45.85735817	1047	
45.87406944	1092	
45.8907807	1134	
45.90749197	1152	
45.92420324	1120	
45.94091451	1124	
45.95762578	1081	
45.97433705	1121	
45.99104832	1152	
46.00775959	1164	
46.02447086	1184	
46.04118213	1160	
46.05789339	1124	
46.07460466	1173	
46.09131593	1135	
46.1080272	1135	
46.12473847	1126	
46.14144974	1112	
46.15816101	1096	
46.17487228	1141	
46.19158355	1088	
46.20829481	1095	
46.22500608	1148	
46.24171735	1161	
46.25842862	1127	
46.27513989	1107	
46.29185116	1151	
46.30856243	1148	
46.3252737	1095	
46.34198497	1161	
46.35869624	1185	
46.3754075	1184	
46.39211877	1132	
46.40883004	1085	
46.42554131	1064	
46.44225258	1147	
46.45896385	1148	
46.47567512	1097	
46.49238639	1090	
46.50909766	1143	
46.52580893	1132	
46.54252019	1022	
46.55923146	1081	
46.57594273	1055	
46.592654	1098	
46.60936527	1095	
46.62607654	963	
46.64278781	1035	
46.65949908	1058	
46.67621035	1091	
46.69292162	1043	
46.70963288	1048	
46.72634415	1084	
46.74305542	999	
46.75976669	983	
46.77647796	959	
46.79318923	1015	
46.8099005	1018	
46.82661177	971	
46.84332304	950	
46.8600343	956	
46.87674557	968	
46.89345684	938	
46.91016811	915	
46.92687938	875	
46.94359065	919	
46.96030192	956	
46.97701319	854	
46.99372446	907	
47.01043573	894	
47.02714699	874	
47.04385826	865	
47.06056953	866	
47.0772808	855	
47.09399207	821	
47.11070334	856	
47.12741461	806	
47.14412588	752	
47.16083715	755	
47.17754842	751	
47.19425968	794	
47.21097095	744	
47.22768222	726	
47.24439349	772	
47.26110476	747	
47.27781603	712	
47.2945273	708	
47.31123857	746	
47.32794984	664	
47.34466111	658	
47.36137237	688	
47.37808364	664	
47.39479491	661	
47.41150618	646	
47.42821745	684	
47.44492872	655	
47.46163999	615	
47.47835126	604	
47.49506253	569	
47.5117738	600	
47.52848506	634	
47.54519633	622	
47.5619076	618	
47.57861887	583	
47.59533014	593	
47.61204141	570	
47.62875268	587	
47.64546395	558	
47.66217522	527	
47.67888648	574	
47.69559775	580	
47.71230902	559	
47.72902029	490	
47.74573156	523	
47.76244283	504	
47.7791541	475	
47.79586537	504	
47.81257664	523	
47.82928791	492	
47.84599917	509	
47.86271044	497	
47.87942171	494	
47.89613298	527	
47.91284425	492	
47.92955552	477	
47.94626679	508	
47.96297806	456	
47.97968933	453	
47.9964006	457	
48.01311186	491	
48.02982313	472	
48.0465344	492	
48.06324567	442	
48.07995694	420	
48.09666821	463	
48.11337948	460	
48.13009075	452	
48.14680202	475	
48.16351329	458	
48.18022455	484	
48.19693582	443	
48.21364709	447	
48.23035836	474	
48.24706963	437	
48.2637809	417	
48.28049217	414	
48.29720344	415	
48.31391471	453	
48.33062598	456	
48.34733724	427	
48.36404851	382	
48.38075978	403	
48.39747105	390	
48.41418232	376	
48.43089359	411	
48.44760486	403	
48.46431613	421	
48.4810274	431	
48.49773866	456	
48.51444993	413	
48.5311612	445	
48.54787247	426	
48.56458374	432	
48.58129501	389	
48.59800628	383	
48.61471755	357	
48.63142882	406	
48.64814009	429	
48.66485135	428	
48.68156262	401	
48.69827389	386	
48.71498516	387	
48.73169643	398	
48.7484077	409	
48.76511897	384	
48.78183024	358	
48.79854151	399	
48.81525278	400	
48.83196404	399	
48.84867531	368	
48.86538658	400	
48.88209785	376	
48.89880912	396	
48.91552039	368	
48.93223166	369	
48.94894293	387	
48.9656542	336	
48.98236547	362	
48.99907673	409	
49.015788	367	
49.03249927	367	
49.04921054	393	
49.06592181	383	
49.08263308	366	
49.09934435	372	
49.11605562	376	
49.13276689	406	
49.14947816	393	
49.16618942	321	
49.18290069	367	
49.19961196	390	
49.21632323	380	
49.2330345	393	
49.24974577	352	
49.26645704	412	
49.28316831	354	
49.29987958	354	
49.31659084	372	
49.33330211	357	
49.35001338	378	
49.36672465	416	
49.38343592	378	
49.40014719	372	
49.41685846	364	
49.43356973	365	
49.450281	375	
49.46699227	376	
49.48370353	372	
49.5004148	387	
49.51712607	397	
49.53383734	390	
49.55054861	371	
49.56725988	357	
49.58397115	357	
49.60068242	338	
49.61739369	363	
49.63410496	364	
49.65081622	406	
49.66752749	368	
49.68423876	386	
49.70095003	365	
49.7176613	371	
49.73437257	339	
49.75108384	357	
49.76779511	368	
49.78450638	349	
49.80121765	339	
49.81792891	374	
49.83464018	359	
49.85135145	381	
49.86806272	373	
49.88477399	352	
49.90148526	357	
49.91819653	366	
49.9349078	326	
49.95161907	353	
49.96833034	378	
49.9850416	332	
50.00175287	340	
50.01846414	349	
50.03517541	368	
50.05188668	337	
50.06859795	342	
50.08530922	380	
50.10202049	338	
50.11873176	382	
50.13544302	349	
50.15215429	352	
50.16886556	364	
50.18557683	389	
50.2022881	366	
50.21899937	334	
50.23571064	318	
50.25242191	355	
50.26913318	321	
50.28584445	348	
50.30255571	362	
50.31926698	347	
50.33597825	362	
50.35268952	331	
50.36940079	356	
50.38611206	385	
50.40282333	348	
50.4195346	348	
50.43624587	366	
50.45295714	325	
50.4696684	352	
50.48637967	315	
50.50309094	355	
50.51980221	370	
50.53651348	324	
50.55322475	358	
50.56993602	344	
50.58664729	316	
50.60335856	349	
50.62006983	357	
50.63678109	335	
50.65349236	360	
50.67020363	356	
50.6869149	379	
50.70362617	359	
50.72033744	379	
50.73704871	364	
50.75375998	355	
50.77047125	358	
50.78718252	374	
50.80389378	354	
50.82060505	354	
50.83731632	335	
50.85402759	368	
50.87073886	360	
50.88745013	365	
50.9041614	321	
50.92087267	347	
50.93758394	355	
50.9542952	338	
50.97100647	347	
50.98771774	343	
51.00442901	365	
51.02114028	338	
51.03785155	335	
51.05456282	369	
51.07127409	356	
51.08798536	347	
51.10469663	333	
51.12140789	368	
51.13811916	326	
51.15483043	339	
51.1715417	333	
51.18825297	324	
51.20496424	338	
51.22167551	371	
51.23838678	374	
51.25509805	328	
51.27180932	337	
51.28852058	348	
51.30523185	344	
51.32194312	354	
51.33865439	311	
51.35536566	325	
51.37207693	356	
51.3887882	316	
51.40549947	323	
51.42221074	337	
51.43892201	333	
51.45563327	355	
51.47234454	324	
51.48905581	334	
51.50576708	340	
51.52247835	358	
51.53918962	346	
51.55590089	337	
51.57261216	366	
51.58932343	364	
51.6060347	346	
51.62274596	358	
51.63945723	363	
51.6561685	357	
51.67287977	357	
51.68959104	328	
51.70630231	341	
51.72301358	336	
51.73972485	324	
51.75643612	356	
51.77314738	336	
51.78985865	328	
51.80656992	343	
51.82328119	316	
51.83999246	328	
51.85670373	350	
51.873415	356	
51.89012627	381	
51.90683754	358	
51.92354881	317	
51.94026007	332	
51.95697134	337	
51.97368261	340	
51.99039388	371	
52.00710515	347	
52.02381642	346	
52.04052769	319	
52.05723896	327	
52.07395023	332	
52.0906615	340	
52.10737276	328	
52.12408403	342	
52.1407953	349	
52.15750657	330	
52.17421784	319	
52.19092911	367	
52.20764038	360	
52.22435165	341	
52.24106292	279	
52.25777419	358	
52.27448545	338	
52.29119672	350	
52.30790799	308	
52.32461926	353	
52.34133053	330	
52.3580418	357	
52.37475307	340	
52.39146434	319	
52.40817561	353	
52.42488688	349	
52.44159814	343	
52.45830941	325	
52.47502068	369	
52.49173195	325	
52.50844322	338	
52.52515449	344	
52.54186576	326	
52.55857703	366	
52.5752883	327	
52.59199956	327	
52.60871083	322	
52.6254221	331	
52.64213337	357	
52.65884464	308	
52.67555591	312	
52.69226718	321	
52.70897845	340	
52.72568972	322	
52.74240099	330	
52.75911225	341	
52.77582352	352	
52.79253479	347	
52.80924606	340	
52.82595733	322	
52.8426686	285	
52.85937987	333	
52.87609114	322	
52.89280241	319	
52.90951368	350	
52.92622494	354	
52.94293621	340	
52.95964748	333	
52.97635875	337	
52.99307002	327	
53.00978129	331	
53.02649256	358	
53.04320383	343	
53.0599151	320	
53.07662637	305	
53.09333763	366	
53.1100489	334	
53.12676017	312	
53.14347144	339	
53.16018271	324	
53.17689398	342	
53.19360525	349	
53.21031652	344	
53.22702779	332	
53.24373906	362	
53.26045032	326	
53.27716159	331	
53.29387286	312	
53.31058413	381	
53.3272954	342	
53.34400667	330	
53.36071794	352	
53.37742921	328	
53.39414048	331	
53.41085174	337	
53.42756301	316	
53.44427428	353	
53.46098555	370	
53.47769682	332	
53.49440809	337	
53.51111936	330	
53.52783063	333	
53.5445419	347	
53.56125317	341	
53.57796443	368	
53.5946757	300	
53.61138697	327	
53.62809824	349	
53.64480951	332	
53.66152078	331	
53.67823205	315	
53.69494332	371	
53.71165459	323	
53.72836586	342	
53.74507712	356	
53.76178839	350	
53.77849966	358	
53.79521093	331	
53.8119222	340	
53.82863347	354	
53.84534474	336	
53.86205601	363	
53.87876728	324	
53.89547855	376	
53.91218981	350	
53.92890108	347	
53.94561235	328	
53.96232362	343	
53.97903489	339	
53.99574616	324	
54.01245743	326	
54.0291687	324	
54.04587997	335	
54.06259124	358	
54.0793025	358	
54.09601377	349	
54.11272504	374	
54.12943631	352	
54.14614758	387	
54.16285885	357	
54.17957012	337	
54.19628139	341	
54.21299266	383	
54.22970392	335	
54.24641519	364	
54.26312646	326	
54.27983773	338	
54.296549	340	
54.31326027	323	
54.32997154	319	
54.34668281	323	
54.36339408	364	
54.38010535	333	
54.39681661	344	
54.41352788	376	
54.43023915	341	
54.44695042	352	
54.46366169	355	
54.48037296	326	
54.49708423	344	
54.5137955	341	
54.53050677	321	
54.54721804	323	
54.5639293	319	
54.58064057	352	
54.59735184	342	
54.61406311	319	
54.63077438	330	
54.64748565	375	
54.66419692	326	
54.68090819	388	
54.69761946	324	
54.71433073	353	
54.73104199	340	
54.74775326	349	
54.76446453	355	
54.7811758	349	
54.79788707	349	
54.81459834	336	
54.83130961	347	
54.84802088	346	
54.86473215	357	
54.88144342	339	
54.89815468	330	
54.91486595	341	
54.93157722	341	
54.94828849	325	
54.96499976	343	
54.98171103	355	
54.9984223	355	
55.01513357	347	
55.03184484	326	
55.0485561	334	
55.06526737	369	
55.08197864	336	
55.09868991	321	
55.11540118	323	
55.13211245	324	
55.14882372	370	
55.16553499	337	
55.18224626	340	
55.19895753	343	
55.21566879	331	
55.23238006	355	
55.24909133	319	
55.2658026	321	
55.28251387	342	
55.29922514	338	
55.31593641	359	
55.33264768	348	
55.34935895	340	
55.36607022	366	
55.38278148	358	
55.39949275	358	
55.41620402	365	
55.43291529	363	
55.44962656	380	
55.46633783	370	
55.4830491	379	
55.49976037	354	
55.51647164	341	
55.53318291	327	
55.54989417	401	
55.56660544	340	
55.58331671	396	
55.60002798	371	
55.61673925	325	
55.63345052	385	
55.65016179	380	
55.66687306	344	
55.68358433	344	
55.7002956	360	
55.71700686	347	
55.73371813	366	
55.7504294	389	
55.76714067	327	
55.78385194	342	
55.80056321	355	
55.81727448	335	
55.83398575	347	
55.85069702	331	
55.86740828	360	
55.88411955	339	
55.90083082	338	
55.91754209	404	
55.93425336	343	
55.95096463	373	
55.9676759	320	
55.98438717	378	
56.00109844	352	
56.01780971	336	
56.03452097	354	
56.05123224	337	
56.06794351	348	
56.08465478	327	
56.10136605	338	
56.11807732	375	
56.13478859	307	
56.15149986	366	
56.16821113	370	
56.1849224	349	
56.20163366	348	
56.21834493	338	
56.2350562	380	
56.25176747	357	
56.26847874	336	
56.28519001	386	
56.30190128	375	
56.31861255	347	
56.33532382	343	
56.35203509	316	
56.36874635	336	
56.38545762	374	
56.40216889	370	
56.41888016	382	
56.43559143	342	
56.4523027	328	
56.46901397	366	
56.48572524	358	
56.50243651	365	
56.51914778	379	
56.53585904	362	
56.55257031	362	
56.56928158	365	
56.58599285	373	
56.60270412	366	
56.61941539	370	
56.63612666	370	
56.65283793	376	
56.6695492	354	
56.68626046	356	
56.70297173	395	
56.719683	331	
56.73639427	375	
56.75310554	384	
56.76981681	365	
56.78652808	346	
56.80323935	390	
56.81995062	429	
56.83666189	362	
56.85337315	325	
56.87008442	378	
56.88679569	362	
56.90350696	383	
56.92021823	376	
56.9369295	379	
56.95364077	379	
56.97035204	383	
56.98706331	373	
57.00377458	369	
57.02048584	387	
57.03719711	369	
57.05390838	379	
57.07061965	363	
57.08733092	372	
57.10404219	388	
57.12075346	393	
57.13746473	376	
57.154176	370	
57.17088727	349	
57.18759853	383	
57.2043098	384	
57.22102107	372	
57.23773234	399	
57.25444361	381	
57.27115488	385	
57.28786615	366	
57.30457742	370	
57.32128869	410	
57.33799995	353	
57.35471122	374	
57.37142249	347	
57.38813376	363	
57.40484503	413	
57.4215563	375	
57.43826757	397	
57.45497884	405	
57.47169011	362	
57.48840138	371	
57.50511264	373	
57.52182391	364	
57.53853518	418	
57.55524645	383	
57.57195772	398	
57.58866899	380	
57.60538026	381	
57.62209153	397	
57.6388028	380	
57.65551407	393	
57.67222533	390	
57.6889366	384	
57.70564787	369	
57.72235914	397	
57.73907041	400	
57.75578168	415	
57.77249295	381	
57.78920422	397	
57.80591549	388	
57.82262676	391	
57.83933802	369	
57.85604929	356	
57.87276056	369	
57.88947183	423	
57.9061831	344	
57.92289437	376	
57.93960564	375	
57.95631691	386	
57.97302818	396	
57.98973945	417	
58.00645071	396	
58.02316198	370	
58.03987325	409	
58.05658452	410	
58.07329579	394	
58.09000706	395	
58.10671833	368	
58.1234296	374	
58.14014087	375	
58.15685213	407	
58.1735634	396	
58.19027467	447	
58.20698594	406	
58.22369721	438	
58.24040848	423	
58.25711975	411	
58.27383102	395	
58.29054229	404	
58.30725356	395	
58.32396482	403	
58.34067609	443	
58.35738736	375	
58.37409863	416	
58.3908099	397	
58.40752117	383	
58.42423244	414	
58.44094371	416	
58.45765498	409	
58.47436625	429	
58.49107751	403	
58.50778878	374	
58.52450005	405	
58.54121132	402	
58.55792259	395	
58.57463386	414	
58.59134513	415	
58.6080564	405	
58.62476767	421	
58.64147894	413	
58.6581902	437	
58.67490147	446	
58.69161274	438	
58.70832401	402	
58.72503528	419	
58.74174655	415	
58.75845782	402	
58.77516909	410	
58.79188036	415	
58.80859163	421	
58.82530289	429	
58.84201416	460	
58.85872543	453	
58.8754367	418	
58.89214797	432	
58.90885924	419	
58.92557051	443	
58.94228178	413	
58.95899305	406	
58.97570431	407	
58.99241558	407	
59.00912685	401	
59.02583812	437	
59.04254939	459	
59.05926066	431	
59.07597193	458	
59.0926832	428	
59.10939447	417	
59.12610574	454	
59.142817	430	
59.15952827	414	
59.17623954	457	
59.19295081	453	
59.20966208	441	
59.22637335	417	
59.24308462	467	
59.25979589	410	
59.27650716	427	
59.29321843	416	
59.30992969	451	
59.32664096	472	
59.34335223	459	
59.3600635	444	
59.37677477	423	
59.39348604	456	
59.41019731	429	
59.42690858	456	
59.44361985	451	
59.46033112	470	
59.47704238	468	
59.49375365	453	
59.51046492	411	
59.52717619	419	
59.54388746	442	
59.56059873	493	
59.57731	447	
59.59402127	475	
59.61073254	468	
59.62744381	462	
59.64415507	459	
59.66086634	453	
59.67757761	454	
59.69428888	459	
59.71100015	468	
59.72771142	483	
59.74442269	463	
59.76113396	453	
59.77784523	463	
59.79455649	457	
59.81126776	423	
59.82797903	458	
59.8446903	457	
59.86140157	515	
59.87811284	453	
59.89482411	453	
59.91153538	469	
59.92824665	454	
59.94495792	490	
59.96166918	446	
59.97838045	469	
59.99509172	450	
60.01180299	474	
60.02851426	472	
60.04522553	499	
60.0619368	481	
60.07864807	491	
60.09535934	483	
60.11207061	520	
60.12878187	496	
60.14549314	469	
60.16220441	481	
60.17891568	453	
60.19562695	440	
60.21233822	474	
60.22904949	458	
60.24576076	500	
60.26247203	477	
60.2791833	446	
60.29589456	484	
60.31260583	482	
60.3293171	463	
60.34602837	470	
60.36273964	466	
60.37945091	461	
60.39616218	487	
60.41287345	490	
60.42958472	475	
60.44629599	462	
60.46300725	516	
60.47971852	466	
60.49642979	452	
60.51314106	521	
60.52985233	482	
60.5465636	485	
60.56327487	504	
60.57998614	497	
60.59669741	474	
60.61340867	505	
60.63011994	462	
60.64683121	484	
60.66354248	483	
60.68025375	468	
60.69696502	523	
60.71367629	503	
60.73038756	508	
60.74709883	526	
60.7638101	537	
60.78052136	464	
60.79723263	488	
60.8139439	458	
60.83065517	481	
60.84736644	481	
60.86407771	492	
60.88078898	510	
60.89750025	489	
60.91421152	497	
60.93092279	527	
60.94763405	464	
60.96434532	500	
60.98105659	499	
60.99776786	535	
61.01447913	454	
61.0311904	504	
61.04790167	484	
61.06461294	511	
61.08132421	528	
61.09803548	519	
61.11474674	507	
61.13145801	442	
61.14816928	495	
61.16488055	519	
61.18159182	465	
61.19830309	494	
61.21501436	492	
61.23172563	504	
61.2484369	503	
61.26514817	501	
61.28185943	510	
61.2985707	522	
61.31528197	475	
61.33199324	485	
61.34870451	487	
61.36541578	476	
61.38212705	524	
61.39883832	458	
61.41554959	513	
61.43226085	464	
61.44897212	478	
61.46568339	489	
61.48239466	492	
61.49910593	497	
61.5158172	506	
61.53252847	527	
61.54923974	491	
61.56595101	524	
61.58266228	492	
61.59937354	482	
61.61608481	525	
61.63279608	459	
61.64950735	458	
61.66621862	521	
61.68292989	489	
61.69964116	526	
61.71635243	482	
61.7330637	474	
61.74977497	470	
61.76648623	461	
61.7831975	475	
61.79990877	488	
61.81662004	487	
61.83333131	481	
61.85004258	473	
61.86675385	468	
61.88346512	481	
61.90017639	482	
61.91688766	484	
61.93359892	483	
61.95031019	482	
61.96702146	517	
61.98373273	487	
62.000444	476	
62.01715527	491	
62.03386654	495	
62.05057781	456	
62.06728908	512	
62.08400035	452	
62.10071161	445	
62.11742288	449	
62.13413415	500	
62.15084542	447	
62.16755669	495	
62.18426796	458	
62.20097923	472	
62.2176905	468	
62.23440177	453	
62.25111303	461	
62.2678243	467	
62.28453557	477	
62.30124684	488	
62.31795811	524	
62.33466938	474	
62.35138065	454	
62.36809192	442	
62.38480319	463	
62.40151446	432	
62.41822572	498	
62.43493699	503	
62.45164826	458	
62.46835953	446	
62.4850708	450	
62.50178207	451	
62.51849334	483	
62.53520461	462	
62.55191588	454	
62.56862715	467	
62.58533841	461	
62.60204968	479	
62.61876095	478	
62.63547222	461	
62.65218349	467	
62.66889476	452	
62.68560603	468	
62.7023173	427	
62.71902857	484	
62.73573984	479	
62.7524511	470	
62.76916237	475	
62.78587364	472	
62.80258491	464	
62.81929618	458	
62.83600745	430	
62.85271872	438	
62.86942999	448	
62.88614126	454	
62.90285253	462	
62.91956379	475	
62.93627506	468	
62.95298633	485	
62.9696976	500	
62.98640887	483	
63.00312014	484	
63.01983141	498	
63.03654268	458	
63.05325395	482	
63.06996521	468	
63.08667648	429	
63.10338775	454	
63.12009902	465	
63.13681029	453	
63.15352156	474	
63.17023283	476	
63.1869441	404	
63.20365537	495	
63.22036664	446	
63.2370779	436	
63.25378917	457	
63.27050044	483	
63.28721171	480	
63.30392298	462	
63.32063425	441	
63.33734552	445	
63.35405679	473	
63.37076806	487	
63.38747933	450	
63.40419059	453	
63.42090186	459	
63.43761313	493	
63.4543244	451	
63.47103567	443	
63.48774694	470	
63.50445821	489	
63.52116948	495	
63.53788075	461	
63.55459202	462	
63.57130328	488	
63.58801455	448	
63.60472582	489	
63.62143709	466	
63.63814836	472	
63.65485963	450	
63.6715709	484	
63.68828217	469	
63.70499344	456	
63.72170471	467	
63.73841597	454	
63.75512724	476	
63.77183851	447	
63.78854978	406	
63.80526105	470	
63.82197232	461	
63.83868359	521	
63.85539486	447	
63.87210613	504	
63.88881739	460	
63.90552866	442	
63.92223993	481	
63.9389512	467	
63.95566247	458	
63.97237374	496	
63.98908501	457	
64.00579628	481	
64.02250755	469	
64.03921882	508	
64.05593008	469	
64.07264135	464	
64.08935262	452	
64.10606389	487	
64.12277516	468	
64.13948643	509	
64.1561977	513	
64.17290897	488	
64.18962024	480	
64.20633151	483	
64.22304277	485	
64.23975404	511	
64.25646531	475	
64.27317658	509	
64.28988785	508	
64.30659912	508	
64.32331039	540	
64.34002166	543	
64.35673293	494	
64.3734442	522	
64.39015546	529	
64.40686673	515	
64.423578	500	
64.44028927	509	
64.45700054	528	
64.47371181	559	
64.49042308	520	
64.50713435	538	
64.52384562	509	
64.54055689	533	
64.55726815	520	
64.57397942	522	
64.59069069	538	
64.60740196	595	
64.62411323	548	
64.6408245	532	
64.65753577	508	
64.67424704	544	
64.69095831	537	
64.70766957	538	
64.72438084	569	
64.74109211	559	
64.75780338	582	
64.77451465	544	
64.79122592	593	
64.80793719	594	
64.82464846	601	
64.84135973	589	
64.858071	536	
64.87478226	516	
64.89149353	583	
64.9082048	610	
64.92491607	604	
64.94162734	572	
64.95833861	579	
64.97504988	572	
64.99176115	609	
65.00847242	589	
65.02518369	578	
65.04189495	611	
65.05860622	606	
65.07531749	589	
65.09202876	594	
65.10874003	624	
65.1254513	594	
65.14216257	607	
65.15887384	647	
65.17558511	636	
65.19229638	635	
65.20900764	637	
65.22571891	613	
65.24243018	655	
65.25914145	662	
65.27585272	632	
65.29256399	643	
65.30927526	643	
65.32598653	609	
65.3426978	653	
65.35940907	715	
65.37612033	727	
65.3928316	707	
65.40954287	742	
65.42625414	718	
65.44296541	720	
65.45967668	726	
65.47638795	742	
65.49309922	731	
65.50981049	713	
65.52652175	723	
65.54323302	747	
65.55994429	745	
65.57665556	770	
65.59336683	843	
65.6100781	810	
65.62678937	765	
65.64350064	830	
65.66021191	795	
65.67692318	809	
65.69363444	793	
65.71034571	779	
65.72705698	803	
65.74376825	805	
65.76047952	874	
65.77719079	882	
65.79390206	884	
65.81061333	833	
65.8273246	914	
65.84403587	869	
65.86074713	846	
65.8774584	880	
65.89416967	919	
65.91088094	966	
65.92759221	961	
65.94430348	982	
65.96101475	979	
65.97772602	991	
65.99443729	976	
66.01114856	999	
66.02785982	1008	
66.04457109	995	
66.06128236	1010	
66.07799363	1034	
66.0947049	1045	
66.11141617	1055	
66.12812744	1045	
66.14483871	1037	
66.16154998	1076	
66.17826125	1030	
66.19497251	1102	
66.21168378	1166	
66.22839505	1195	
66.24510632	1127	
66.26181759	1072	
66.27852886	1150	
66.29524013	1175	
66.3119514	1160	
66.32866267	1182	
66.34537393	1226	
66.3620852	1127	
66.37879647	1166	
66.39550774	1222	
66.41221901	1176	
66.42893028	1241	
66.44564155	1241	
66.46235282	1241	
66.47906409	1238	
66.49577536	1295	
66.51248662	1187	
66.52919789	1239	
66.54590916	1223	
66.56262043	1248	
66.5793317	1313	
66.59604297	1286	
66.61275424	1264	
66.62946551	1244	
66.64617678	1228	
66.66288805	1200	
66.67959931	1339	
66.69631058	1273	
66.71302185	1241	
66.72973312	1312	
66.74644439	1268	
66.76315566	1340	
66.77986693	1326	
66.7965782	1284	
66.81328947	1249	
66.83000074	1338	
66.846712	1297	
66.86342327	1307	
66.88013454	1307	
66.89684581	1202	
66.91355708	1285	
66.93026835	1331	
66.94697962	1260	
66.96369089	1260	
66.98040216	1255	
66.99711343	1262	
67.01382469	1306	
67.03053596	1298	
67.04724723	1283	
67.0639585	1195	
67.08066977	1221	
67.09738104	1247	
67.11409231	1266	
67.13080358	1231	
67.14751485	1190	
67.16422611	1214	
67.18093738	1251	
67.19764865	1173	
67.21435992	1148	
67.23107119	1207	
67.24778246	1187	
67.26449373	1144	
67.281205	1173	
67.29791627	1158	
67.31462754	1142	
67.3313388	1158	
67.34805007	1183	
67.36476134	1172	
67.38147261	1097	
67.39818388	1066	
67.41489515	1092	
67.43160642	1135	
67.44831769	1180	
67.46502896	1054	
67.48174023	1138	
67.49845149	1142	
67.51516276	1065	
67.53187403	1095	
67.5485853	1095	
67.56529657	1059	
67.58200784	1029	
67.59871911	1039	
67.61543038	1035	
67.63214165	1025	
67.64885292	1042	
67.66556418	1076	
67.68227545	1047	
67.69898672	1029	
67.71569799	972	
67.73240926	983	
67.74912053	1024	
67.7658318	1035	
67.78254307	954	
67.79925434	955	
67.81596561	967	
67.83267687	937	
67.84938814	947	
67.86609941	936	
67.88281068	939	
67.89952195	921	
67.91623322	874	
67.93294449	874	
67.94965576	839	
67.96636703	873	
67.98307829	864	
67.99978956	935	
68.01650083	893	
68.0332121	932	
68.04992337	806	
68.06663464	908	
68.08334591	899	
68.10005718	830	
68.11676845	876	
68.13347972	858	
68.15019098	773	
68.16690225	798	
68.18361352	796	
68.20032479	790	
68.21703606	794	
68.23374733	749	
68.2504586	793	
68.26716987	772	
68.28388114	793	
68.30059241	793	
68.31730367	696	
68.33401494	740	
68.35072621	725	
68.36743748	723	
68.38414875	682	
68.40086002	669	
68.41757129	676	
68.43428256	656	
68.45099383	649	
68.4677051	608	
68.48441636	679	
68.50112763	677	
68.5178389	627	
68.53455017	643	
68.55126144	652	
68.56797271	652	
68.58468398	625	
68.60139525	599	
68.61810652	614	
68.63481778	582	
68.65152905	610	
68.66824032	588	
68.68495159	546	
68.70166286	572	
68.71837413	560	
68.7350854	568	
68.75179667	577	
68.76850794	541	
68.78521921	519	
68.80193047	532	
68.81864174	509	
68.83535301	530	
68.85206428	552	
68.86877555	556	
68.88548682	481	
68.90219809	557	
68.91890936	531	
68.93562063	495	
68.9523319	466	
68.96904316	516	
68.98575443	505	
69.0024657	510	
69.01917697	492	
69.03588824	440	
69.05259951	488	
69.06931078	509	
69.08602205	449	
69.10273332	509	
69.11944459	435	
69.13615585	441	
69.15286712	440	
69.16957839	452	
69.18628966	448	
69.20300093	451	
69.2197122	425	
69.23642347	406	
69.25313474	472	
69.26984601	425	
69.28655728	418	
69.30326854	434	
69.31997981	402	
69.33669108	446	
69.35340235	450	
69.37011362	435	
69.38682489	430	
69.40353616	409	
69.42024743	433	
69.4369587	445	
69.45366996	415	
69.47038123	414	
69.4870925	429	
69.50380377	421	
69.52051504	416	
69.53722631	416	
69.55393758	406	
69.57064885	367	
69.58736012	405	
69.60407139	388	
69.62078265	402	
69.63749392	402	
69.65420519	383	
69.67091646	397	
69.68762773	322	
69.704339	398	
69.72105027	334	
69.73776154	384	
69.75447281	340	
69.77118408	391	
69.78789534	364	
69.80460661	400	
69.82131788	378	
69.83802915	385	
69.85474042	374	
69.87145169	376	
69.88816296	387	
69.90487423	359	
69.9215855	390	
69.93829677	417	
69.95500803	331	
69.9717193	336	
69.98843057	381	
70.00514184	350	
70.02185311	370	
70.03856438	341	
70.05527565	350	
70.07198692	365	
70.08869819	357	
70.10540946	331	
70.12212072	358	
70.13883199	322	
70.15554326	358	
70.17225453	371	
70.1889658	349	
70.20567707	368	
70.22238834	333	
70.23909961	346	
70.25581088	379	
70.27252214	374	
70.28923341	366	
70.30594468	348	
70.32265595	365	
70.33936722	340	
70.35607849	371	
70.37278976	347	
70.38950103	334	
70.4062123	317	
70.42292357	367	
70.43963483	353	
70.4563461	333	
70.47305737	319	
70.48976864	369	
70.50647991	367	
70.52319118	343	
70.53990245	341	
70.55661372	362	
70.57332499	328	
70.59003626	328	
70.60674752	339	
70.62345879	333	
70.64017006	311	
70.65688133	316	
70.6735926	316	
70.69030387	317	
70.70701514	319	
70.72372641	348	
70.74043768	344	
70.75714895	312	
70.77386021	301	
70.79057148	289	
70.80728275	304	
70.82399402	304	
70.84070529	306	
70.85741656	322	
70.87412783	325	
70.8908391	319	
70.90755037	372	
70.92426164	302	
70.9409729	311	
70.95768417	316	
70.97439544	331	
70.99110671	327	
71.00781798	327	
71.02452925	327	
71.04124052	327	
71.05795179	332	
71.07466306	287	
71.09137432	318	
71.10808559	337	
71.12479686	321	
71.14150813	327	
71.1582194	258	
71.17493067	332	
71.19164194	312	
71.20835321	315	
71.22506448	309	
71.24177575	313	
71.25848701	351	
71.27519828	292	
71.29190955	338	
71.30862082	357	
71.32533209	338	
71.34204336	303	
71.35875463	326	
71.3754659	325	
71.39217717	290	
71.40888844	293	
71.4255997	320	
71.44231097	296	
71.45902224	288	
71.47573351	303	
71.49244478	272	
71.50915605	297	
71.52586732	324	
71.54257859	320	
71.55928986	327	
71.57600113	295	
71.59271239	300	
71.60942366	324	
71.62613493	325	
71.6428462	319	
71.65955747	297	
71.67626874	320	
71.69298001	286	
71.70969128	257	
71.72640255	304	
71.74311382	299	
71.75982508	287	
71.77653635	321	
71.79324762	305	
71.80995889	316	
71.82667016	307	
71.84338143	281	
71.8600927	307	
71.87680397	300	
71.89351524	288	
71.9102265	315	
71.92693777	294	
71.94364904	336	
71.96036031	284	
71.97707158	279	
71.99378285	306	
72.01049412	339	
72.02720539	280	
72.04391666	303	
72.06062793	262	
72.07733919	300	
72.09405046	321	
72.11076173	313	
72.127473	300	
72.14418427	278	
72.16089554	310	
72.17760681	285	
72.19431808	258	
72.21102935	292	
72.22774062	295	
72.24445188	272	
72.26116315	302	
72.27787442	295	
72.29458569	303	
72.31129696	287	
72.32800823	284	
72.3447195	294	
72.36143077	296	
72.37814204	286	
72.39485331	268	
72.41156457	317	
72.42827584	303	
72.44498711	299	
72.46169838	269	
72.47840965	315	
72.49512092	300	
72.51183219	283	
72.52854346	291	
72.54525473	304	
72.561966	290	
72.57867726	301	
72.59538853	277	
72.6120998	262	
72.62881107	290	
72.64552234	307	
72.66223361	285	
72.67894488	280	
72.69565615	291	
72.71236742	255	
72.72907868	271	
72.74578995	315	
72.76250122	297	
72.77921249	315	
72.79592376	304	
72.81263503	280	
72.8293463	270	
72.84605757	297	
72.86276884	300	
72.87948011	309	
72.89619137	253	
72.91290264	304	
72.92961391	291	
72.94632518	300	
72.96303645	268	
72.97974772	255	
72.99645899	289	
73.01317026	278	
73.02988153	285	
73.0465928	299	
73.06330406	315	
73.08001533	276	
73.0967266	280	
73.11343787	283	
73.13014914	280	
73.14686041	325	
73.16357168	270	
73.18028295	269	
73.19699422	311	
73.21370549	293	
73.23041675	281	
73.24712802	307	
73.26383929	286	
73.28055056	270	
73.29726183	260	
73.3139731	277	
73.33068437	291	
73.34739564	279	
73.36410691	294	
73.38081818	296	
73.39752944	310	
73.41424071	271	
73.43095198	271	
73.44766325	272	
73.46437452	294	
73.48108579	266	
73.49779706	278	
73.51450833	262	
73.5312196	291	
73.54793086	287	
73.56464213	277	
73.5813534	266	
73.59806467	262	
73.61477594	250	
73.63148721	281	
73.64819848	276	
73.66490975	253	
73.68162102	331	
73.69833229	285	
73.71504355	296	
73.73175482	253	
73.74846609	284	
73.76517736	276	
73.78188863	296	
73.7985999	290	
73.81531117	291	
73.83202244	294	
73.84873371	300	
73.86544498	299	
73.88215624	283	
73.89886751	285	
73.91557878	301	
73.93229005	283	
73.94900132	311	
73.96571259	285	
73.98242386	288	
73.99913513	271	
74.0158464	313	
74.03255767	271	
74.04926893	273	
74.0659802	273	
74.08269147	288	
74.09940274	234	
74.11611401	268	
74.13282528	294	
74.14953655	268	
74.16624782	284	
74.18295909	306	
74.19967036	313	
74.21638162	296	
74.23309289	294	
74.24980416	288	
74.26651543	295	
74.2832267	281	
74.29993797	284	
74.31664924	275	
74.33336051	273	
74.35007178	308	
74.36678304	310	
74.38349431	259	
74.40020558	315	
74.41691685	273	
74.43362812	260	
74.45033939	296	
74.46705066	269	
74.48376193	255	
74.5004732	308	
74.51718447	309	
74.53389573	254	
74.550607	299	
74.56731827	261	
74.58402954	288	
74.60074081	288	
74.61745208	318	
74.63416335	292	
74.65087462	274	
74.66758589	275	
74.68429716	252	
74.70100842	277	
74.71771969	287	
74.73443096	301	
74.75114223	270	
74.7678535	303	
74.78456477	289	
74.80127604	294	
74.81798731	275	
74.83469858	303	
74.85140985	245	
74.86812111	264	
74.88483238	290	
74.90154365	300	
74.91825492	279	
74.93496619	265	
74.95167746	289	
74.96838873	296	
74.9851	294	
75.00181127	287	
75.01852254	274	
75.0352338	249	
75.05194507	284	
75.06865634	270	
75.08536761	243	
75.10207888	248	
75.11879015	271	
75.13550142	289	
75.15221269	271	
75.16892396	283	
75.18563522	284	
75.20234649	286	
75.21905776	276	
75.23576903	271	
75.2524803	276	
75.26919157	284	
75.28590284	296	
75.30261411	266	
75.31932538	288	
75.33603665	283	
75.35274791	276	
75.36945918	281	
75.38617045	293	
75.40288172	291	
75.41959299	272	
75.43630426	309	
75.45301553	274	
75.4697268	264	
75.48643807	272	
75.50314934	311	
75.5198606	286	
75.53657187	291	
75.55328314	291	
75.56999441	284	
75.58670568	239	
75.60341695	277	
75.62012822	313	
75.63683949	253	
75.65355076	272	
75.67026203	276	
75.68697329	286	
75.70368456	289	
75.72039583	308	
75.7371071	302	
75.75381837	271	
75.77052964	295	
75.78724091	268	
75.80395218	296	
75.82066345	281	
75.83737472	294	
75.85408598	269	
75.87079725	273	
75.88750852	275	
75.90421979	286	
75.92093106	292	
75.93764233	283	
75.9543536	273	
75.97106487	275	
75.98777614	259	
76.0044874	293	
76.02119867	265	
76.03790994	281	
76.05462121	250	
76.07133248	250	
76.08804375	256	
76.10475502	274	
76.12146629	247	
76.13817756	279	
76.15488883	264	
76.17160009	288	
76.18831136	268	
76.20502263	260	
76.2217339	285	
76.23844517	262	
76.25515644	301	
76.27186771	258	
76.28857898	255	
76.30529025	276	
76.32200152	279	
76.33871278	287	
76.35542405	286	
76.37213532	285	
76.38884659	258	
76.40555786	261	
76.42226913	260	
76.4389804	290	
76.45569167	274	
76.47240294	299	
76.48911421	285	
76.50582547	270	
76.52253674	275	
76.53924801	292	
76.55595928	270	
76.57267055	276	
76.58938182	287	
76.60609309	312	
76.62280436	308	
76.63951563	275	
76.6562269	254	
76.67293816	276	
76.68964943	275	
76.7063607	247	
76.72307197	287	
76.73978324	273	
76.75649451	295	
76.77320578	289	
76.78991705	257	
76.80662832	244	
76.82333958	280	
76.84005085	291	
76.85676212	276	
76.87347339	304	
76.89018466	281	
76.90689593	269	
76.9236072	271	
76.94031847	295	
76.95702974	275	
76.97374101	275	
76.99045227	268	
77.00716354	274	
77.02387481	272	
77.04058608	318	
77.05729735	278	
77.07400862	252	
77.09071989	305	
77.10743116	276	
77.12414243	263	
77.1408537	307	
77.15756496	276	
77.17427623	285	
77.1909875	291	
77.20769877	283	
77.22441004	285	
77.24112131	297	
77.25783258	290	
77.27454385	277	
77.29125512	284	
77.30796639	297	
77.32467765	260	
77.34138892	263	
77.35810019	305	
77.37481146	264	
77.39152273	257	
77.408234	312	
77.42494527	306	
77.44165654	288	
77.45836781	271	
77.47507908	286	
77.49179034	285	
77.50850161	271	
77.52521288	276	
77.54192415	275	
77.55863542	311	
77.57534669	264	
77.59205796	279	
77.60876923	294	
77.6254805	266	
77.64219176	291	
77.65890303	259	
77.6756143	260	
77.69232557	271	
77.70903684	316	
77.72574811	304	
77.74245938	252	
77.75917065	254	
77.77588192	299	
77.79259319	256	
77.80930445	280	
77.82601572	301	
77.84272699	299	
77.85943826	265	
77.87614953	284	
77.8928608	277	
77.90957207	259	
77.92628334	272	
77.94299461	263	
77.95970588	261	
77.97641714	241	
77.99312841	281	
78.00983968	252	
78.02655095	270	
78.04326222	260	
78.05997349	273	
78.07668476	238	
78.09339603	305	
78.1101073	281	
78.12681857	262	
78.14352983	270	
78.1602411	275	
78.17695237	280	
78.19366364	265	
78.21037491	289	
78.22708618	274	
78.24379745	244	
78.26050872	289	
78.27721999	252	
78.29393126	264	
78.31064252	259	
78.32735379	245	
78.34406506	279	
78.36077633	262	
78.3774876	285	
78.39419887	283	
78.41091014	278	
78.42762141	279	
78.44433268	263	
78.46104394	277	
78.47775521	258	
78.49446648	264	
78.51117775	283	
78.52788902	285	
78.54460029	244	
78.56131156	287	
78.57802283	249	
78.5947341	259	
78.61144537	260	
78.62815663	264	
78.6448679	294	
78.66157917	279	
78.67829044	281	
78.69500171	275	
78.71171298	262	
78.72842425	278	
78.74513552	248	
78.76184679	313	
78.77855806	257	
78.79526932	269	
78.81198059	285	
78.82869186	244	
78.84540313	262	
78.8621144	281	
78.87882567	288	
78.89553694	214	
78.91224821	297	
78.92895948	258	
78.94567075	289	
78.96238201	288	
78.97909328	266	
78.99580455	284	
79.01251582	276	
79.02922709	271	
79.04593836	284	
79.06264963	270	
79.0793609	259	
79.09607217	253	
79.11278343	246	
79.1294947	255	
79.14620597	281	
79.16291724	287	
79.17962851	286	
79.19633978	271	
79.21305105	238	
79.22976232	284	
79.24647359	247	
79.26318486	259	
79.27989612	289	
79.29660739	270	
79.31331866	249	
79.33002993	281	
79.3467412	270	
79.36345247	238	
79.38016374	289	
79.39687501	279	
79.41358628	300	
79.43029755	280	
79.44700881	239	
79.46372008	271	
79.48043135	246	
79.49714262	250	
79.51385389	281	
79.53056516	250	
79.54727643	258	
79.5639877	249	
79.58069897	252	
79.59741024	237	
79.6141215	274	
79.63083277	260	
79.64754404	280	
79.66425531	266	
79.68096658	277	
79.69767785	266	
79.71438912	244	
79.73110039	252	
79.74781166	272	
79.76452293	275	
79.78123419	259	
79.79794546	257	
79.81465673	291	
79.831368	256	
79.84807927	269	
79.86479054	229	
79.88150181	279	
79.89821308	270	
79.91492435	275	
79.93163561	278	
79.94834688	239	
79.96505815	272	
79.98176942	248	
79.99848069	272	
80.01519196	261	
80.03190323	264	
80.0486145	272	
80.06532577	272	
80.08203704	248	
80.0987483	240	
80.11545957	252	
80.13217084	274	
80.14888211	260	
80.16559338	260	
80.18230465	240	
80.19901592	270	
80.21572719	258	
80.23243846	252	
80.24914973	256	
80.26586099	272	
80.28257226	249	
80.29928353	278	
80.3159948	280	
80.33270607	269	
80.34941734	274	
80.36612861	264	
80.38283988	253	
80.39955115	244	
80.41626242	245	
80.43297368	271	
80.44968495	287	
80.46639622	232	
80.48310749	237	
80.49981876	241	
80.51653003	230	
80.5332413	240	
80.54995257	247	
80.56666384	233	
80.58337511	231	
80.60008637	248	
80.61679764	231	
80.63350891	250	
80.65022018	247	
80.66693145	242	
80.68364272	240	
80.70035399	253	
80.71706526	256	
80.73377653	249	
80.75048779	254	
80.76719906	254	
80.78391033	240	
80.8006216	238	
80.81733287	224	
80.83404414	256	
80.85075541	246	
80.86746668	247	
80.88417795	265	
80.90088922	241	
80.91760048	265	
80.93431175	252	
80.95102302	272	
80.96773429	236	
80.98444556	258	
81.00115683	233	
81.0178681	246	
81.03457937	233	
81.05129064	273	
81.06800191	241	
81.08471317	228	
81.10142444	260	
81.11813571	262	
81.13484698	257	
81.15155825	274	
81.16826952	256	
81.18498079	230	
81.20169206	243	
81.21840333	231	
81.2351146	261	
81.25182586	266	
81.26853713	300	
81.2852484	258	
81.30195967	240	
81.31867094	273	
81.33538221	237	
81.35209348	277	
81.36880475	266	
81.38551602	260	
81.40222729	272	
81.41893855	286	
81.43564982	258	
81.45236109	279	
81.46907236	263	
81.48578363	240	
81.5024949	252	
81.51920617	290	
81.53591744	275	
81.55262871	237	
81.56933997	247	
81.58605124	244	
81.60276251	243	
81.61947378	271	
81.63618505	276	
81.65289632	257	
81.66960759	261	
81.68631886	263	
81.70303013	280	
81.7197414	278	
81.73645266	262	
81.75316393	283	
81.7698752	278	
81.78658647	253	
81.80329774	271	
81.82000901	257	
81.83672028	293	
81.85343155	284	
81.87014282	256	
81.88685409	270	
81.90356535	261	
81.92027662	277	
81.93698789	280	
81.95369916	258	
81.97041043	264	
81.9871217	296	
82.00383297	281	
82.02054424	269	
82.03725551	281	
82.05396678	296	
82.07067804	257	
82.08738931	266	
82.10410058	272	
82.12081185	284	
82.13752312	240	
82.15423439	268	
82.17094566	281	
82.18765693	247	
82.2043682	260	
82.22107947	275	
82.23779073	247	
82.254502	268	
82.27121327	258	
82.28792454	243	
82.30463581	253	
82.32134708	269	
82.33805835	289	
82.35476962	239	
82.37148089	279	
82.38819215	284	
82.40490342	271	
82.42161469	263	
82.43832596	270	
82.45503723	275	
82.4717485	293	
82.48845977	264	
82.50517104	254	
82.52188231	273	
82.53859358	281	
82.55530484	254	
82.57201611	255	
82.58872738	259	
82.60543865	252	
82.62214992	250	
82.63886119	271	
82.65557246	270	
82.67228373	268	
82.688995	253	
82.70570627	246	
82.72241753	264	
82.7391288	259	
82.75584007	255	
82.77255134	252	
82.78926261	232	
82.80597388	221	
82.82268515	260	
82.83939642	266	
82.85610769	259	
82.87281896	259	
82.88953022	231	
82.90624149	229	
82.92295276	238	
82.93966403	253	
82.9563753	252	
82.97308657	261	
82.98979784	223	
83.00650911	234	
83.02322038	254	
83.03993165	268	
83.05664291	232	
83.07335418	245	
83.09006545	261	
83.10677672	243	
83.12348799	247	
83.14019926	261	
83.15691053	252	
83.1736218	232	
83.19033307	260	
83.20704433	252	
83.2237556	215	
83.24046687	248	
83.25717814	254	
83.27388941	244	
83.29060068	257	
83.30731195	253	
83.32402322	243	
83.34073449	255	
83.35744576	246	
83.37415702	241	
83.39086829	266	
83.40757956	273	
83.42429083	274	
83.4410021	284	
83.45771337	220	
83.47442464	245	
83.49113591	274	
83.50784718	240	
83.52455845	245	
83.54126971	234	
83.55798098	225	
83.57469225	278	
83.59140352	262	
83.60811479	247	
83.62482606	255	
83.64153733	250	
83.6582486	221	
83.67495987	210	
83.69167114	248	
83.7083824	238	
83.72509367	256	
83.74180494	242	
83.75851621	220	
83.77522748	239	
83.79193875	245	
83.80865002	241	
83.82536129	234	
83.84207256	257	
83.85878383	240	
83.87549509	265	
83.89220636	242	
83.90891763	256	
83.9256289	231	
83.94234017	288	
83.95905144	241	
83.97576271	252	
83.99247398	278	
84.00918525	237	
84.02589651	236	
84.04260778	215	
84.05931905	249	
84.07603032	250	
84.09274159	259	
84.10945286	273	
84.12616413	249	
84.1428754	275	
84.15958667	274	
84.17629794	257	
84.1930092	264	
84.20972047	248	
84.22643174	249	
84.24314301	291	
84.25985428	248	
84.27656555	256	
84.29327682	276	
84.30998809	283	
84.32669936	292	
84.34341063	256	
84.36012189	279	
84.37683316	257	
84.39354443	259	
84.4102557	276	
84.42696697	245	
84.44367824	265	
84.46038951	278	
84.47710078	278	
84.49381205	272	
84.51052332	288	
84.52723458	255	
84.54394585	249	
84.56065712	240	
84.57736839	262	
84.59407966	244	
84.61079093	272	
84.6275022	271	
84.64421347	270	
84.66092474	286	
84.67763601	287	
84.69434727	286	
84.71105854	300	
84.72776981	287	
84.74448108	308	
84.76119235	292	
84.77790362	290	
84.79461489	301	
84.81132616	285	
84.82803743	297	
84.84474869	273	
84.86145996	268	
84.87817123	275	
84.8948825	281	
84.91159377	288	
84.92830504	254	
84.94501631	278	
84.96172758	284	
84.97843885	299	
84.99515012	305	
85.01186138	244	
85.02857265	292	
85.04528392	307	
85.06199519	311	
85.07870646	322	
85.09541773	283	
85.112129	295	
85.12884027	288	
85.14555154	285	
85.16226281	274	
85.17897407	281	
85.19568534	290	
85.21239661	293	
85.22910788	260	
85.24581915	280	
85.26253042	288	
85.27924169	313	
85.29595296	285	
85.31266423	278	
85.3293755	271	
85.34608676	293	
85.36279803	301	
85.3795093	296	
85.39622057	290	
85.41293184	284	
85.42964311	248	
85.44635438	256	
85.46306565	278	
85.47977692	261	
85.49648819	266	
85.51319945	290	
85.52991072	224	
85.54662199	274	
85.56333326	287	
85.58004453	265	
85.5967558	270	
85.61346707	249	
85.63017834	263	
85.64688961	278	
85.66360087	272	
85.68031214	269	
85.69702341	266	
85.71373468	247	
85.73044595	270	
85.74715722	243	
85.76386849	242	
85.78057976	265	
85.79729103	274	
85.8140023	255	
85.83071356	254	
85.84742483	283	
85.8641361	264	
85.88084737	250	
85.89755864	214	
85.91426991	222	
85.93098118	250	
85.94769245	228	
85.96440372	263	
85.98111499	237	
85.99782625	206	
86.01453752	237	
86.03124879	233	
86.04796006	261	
86.06467133	247	
86.0813826	255	
86.09809387	245	
86.11480514	249	
86.13151641	237	
86.14822768	243	
86.16493894	272	
86.18165021	259	
86.19836148	269	
86.21507275	274	
86.23178402	262	
86.24849529	240	
86.26520656	256	
86.28191783	220	
86.2986291	255	
86.31534037	206	
86.33205163	244	
86.3487629	230	
86.36547417	243	
86.38218544	222	
86.39889671	242	
86.41560798	246	
86.43231925	264	
86.44903052	237	
86.46574179	266	
86.48245305	272	
86.49916432	239	
86.51587559	246	
86.53258686	241	
86.54929813	217	
86.5660094	227	
86.58272067	230	
86.59943194	237	
86.61614321	237	
86.63285448	246	
86.64956574	243	
86.66627701	261	
86.68298828	196	
86.69969955	229	
86.71641082	252	
86.73312209	232	
86.74983336	222	
86.76654463	217	
86.7832559	234	
86.79996717	231	
86.81667843	249	
86.8333897	232	
86.85010097	240	
86.86681224	233	
86.88352351	244	
86.90023478	232	
86.91694605	227	
86.93365732	220	
86.95036859	224	
86.96707986	225	
86.98379112	229	
87.00050239	228	
87.01721366	227	
87.03392493	209	
87.0506362	236	
87.06734747	217	
87.08405874	197	
87.10077001	218	
87.11748128	239	
87.13419255	237	
87.15090381	233	
87.16761508	193	
87.18432635	197	
87.20103762	230	
87.21774889	227	
87.23446016	218	
87.25117143	232	
87.2678827	220	
87.28459397	222	
87.30130523	222	
87.3180165	218	
87.33472777	225	
87.35143904	212	
87.36815031	225	
87.38486158	221	
87.40157285	237	
87.41828412	194	
87.43499539	220	
87.45170666	222	
87.46841792	203	
87.48512919	232	
87.50184046	205	
87.51855173	238	
87.535263	207	
87.55197427	193	
87.56868554	221	
87.58539681	230	
87.60210808	215	
87.61881935	194	
87.63553061	237	
87.65224188	206	
87.66895315	238	
87.68566442	215	
87.70237569	210	
87.71908696	203	
87.73579823	230	
87.7525095	197	
87.76922077	226	
87.78593204	223	
87.8026433	199	
87.81935457	200	
87.83606584	233	
87.85277711	198	
87.86948838	213	
87.88619965	211	
87.90291092	220	
87.91962219	225	
87.93633346	192	
87.95304473	183	
87.96975599	191	
87.98646726	209	
88.00317853	198	
88.0198898	196	
88.03660107	208	
88.05331234	216	
88.07002361	215	
88.08673488	209	
88.10344615	206	
88.12015741	211	
88.13686868	213	
88.15357995	171	
88.17029122	203	
88.18700249	211	
88.20371376	200	
88.22042503	220	
88.2371363	208	
88.25384757	223	
88.27055884	225	
88.2872701	215	
88.30398137	208	
88.32069264	222	
88.33740391	187	
88.35411518	202	
88.37082645	240	
88.38753772	199	
88.40424899	209	
88.42096026	193	
88.43767153	206	
88.45438279	240	
88.47109406	209	
88.48780533	217	
88.5045166	202	
88.52122787	190	
88.53793914	186	
88.55465041	205	
88.57136168	203	
88.58807295	240	
88.60478422	233	
88.62149548	220	
88.63820675	213	
88.65491802	216	
88.67162929	228	
88.68834056	197	
88.70505183	195	
88.7217631	217	
88.73847437	211	
88.75518564	196	
88.77189691	211	
88.78860817	213	
88.80531944	190	
88.82203071	198	
88.83874198	191	
88.85545325	202	
88.87216452	208	
88.88887579	170	
88.90558706	198	
88.92229833	189	
88.93900959	208	
88.95572086	228	
88.97243213	214	
88.9891434	208	
89.00585467	205	
89.02256594	199	
89.03927721	224	
89.05598848	194	
89.07269975	212	
89.08941102	252	
89.10612228	202	
89.12283355	210	
89.13954482	183	
89.15625609	207	
89.17296736	203	
89.18967863	217	
89.2063899	211	
89.22310117	209	
89.23981244	192	
89.25652371	213	
89.27323497	209	
89.28994624	202	
89.30665751	205	
89.32336878	205	
89.34008005	201	
89.35679132	195	
89.37350259	181	
89.39021386	226	
89.40692513	186	
89.4236364	200	
89.44034766	231	
89.45705893	198	
89.4737702	209	
89.49048147	210	
89.50719274	199	
89.52390401	205	
89.54061528	238	
89.55732655	224	
89.57403782	194	
89.59074908	207	
89.60746035	194	
89.62417162	248	
89.64088289	202	
89.65759416	205	
89.67430543	194	
89.6910167	205	
89.70772797	193	
89.72443924	233	
89.74115051	220	
89.75786177	180	
89.77457304	222	
89.79128431	199	
89.80799558	196	
89.82470685	206	
89.84141812	191	
89.85812939	228	
89.87484066	236	
89.89155193	216	
89.9082632	208	
89.92497446	185	
89.94168573	192	
89.958397	202	
89.97510827	205	
89.99181954	222	
